Alt,u,v,temp,bv2
22873,-1.82917031537878,-2.72743692472053,0.21732070365352,0.000746134367052024
22879,-2.10845565479079,-2.82182905027381,0.207442489851083,-0
22884,-2.31705387008718,-2.81610138832918,0.197564276048645,-0.00109135633355864
22890,-2.50354375580134,-2.87291251961347,0.287686062246202,-0.00109257305450038
22896,-2.80942174492592,-2.88771009786042,0.277807848443757,-0
22902,-2.99690564628932,-2.94103062106544,0.26792963464132,0.000750702822747987
22908,-3.21007363800671,-2.91270673512151,0.257780784844286,0.000750128207071995
22913,-3.493997380216,-2.99190595320282,0.247631935047266,-0
22919,-3.68221999223253,-3.04173783019022,0.23748308525024,0.000752718908519513
22925,-3.89798549560394,-2.99779334413765,0.22733423545322,-0.00108996405964405
22931,-4.1828973601872,-3.07184421427195,0.317185385656188,-0.00184557438794705
22937,-4.37160115667444,-3.11820677299115,0.307036535859162,0.000754745852248113
22943,-4.56002013236466,-3.16452822758017,0.296752368064851,0.00075416503293126
22949,-4.87519543562314,-3.12748080965209,0.286332882273243,-0
22954,-5.06422973272447,-3.17027404029138,0.275913396481627,0.000756783741886248
22960,-5.25310810384325,-3.21314107983134,0.265493910690019,0.00075619978300727
22966,-5.4732314178131,-3.13444283383539,0.255074424898403,-0
22972,-5.59533945666026,-3.02585190129741,0.244654939106795,0.000758832666339416
22978,-5.81368442287903,-2.93410496622727,0.234100135317902,0.000758245542373437
22984,-5.9329408795853,-2.81588461655686,0.223545331528989,-0
22989,-6.1241063330182,-2.84510407439634,0.212990527740097,0.000760892715477906
22995,-6.24193512773701,-2.7196806206891,0.202300405953892,0.000760302400622605
23001,-6.45665286536752,-2.6059469396166,0.191610284167702,-0
23007,-6.66986891964819,-2.48503096669216,0.180784844384213,0.000762963980151166
23013,-6.76301458692579,-2.48993748229676,0.169959404600725,0.000762370448323
23019,-6.97462220969368,-2.36005300545128,0.159133964817244,-0
23025,-7.08481233303922,-2.21245365683027,0.148308525033748,0.000765046552200947
23030,-7.27742094877022,-2.22461112368757,0.137483085250267,0.000764449777031306
23036,-7.48490313589188,-2.078748698512,0.126522327469473,-0
23042,-7.59021316371168,-1.91890615775339,0.11556156968868,0.000767140524473435
23048,-7.78278293800412,-1.92456478962955,0.104465493910595,0.000766540479304737
23054,-7.98522958166139,-1.76310332001491,0.0933694181325251,-0
23060,-8.07759945580483,-1.76033966263416,0.0822733423544406,0.000769245990835047
23066,-8.27711173002077,-1.59043547827863,0.0710419485790652,0.000768642648716772
23071,-8.46894952139565,-1.58976906828173,0.0598105548036898,-0
23077,-8.56538972195542,-1.4077839731949,0.0485791610283144,0.000771363046184569
23083,-8.457060525221,-1.39873497332632,0.0373477672529461,0.00077075637986922
23089,-8.3500674750883,-1.2153870867726,0.0259810554802797,-0
23095,-8.24146391762787,-1.20862031507734,0.0146143437076063,0.000773491786469754
23101,-8.1325805531889,-1.20200586452496,0.00324763193493993,0.000772881768408757
23106,-8.02204679263225,-1.02635311350138,-0.00811907983772642,-0
23112,-7.91284940607505,-1.02197519220011,-0.0194857916103857,0.00262266739779245
23118,-7.79915019123026,-0.85211542627981,-0.130987821380344,0.00261566737173193
23124,-7.68961448515704,-0.849852901862221,-0.142489851150302,-0
23129,-7.57296953987647,-0.685767540125267,-0.154127198917557,0.000777784710958321
23135,-7.4632631206905,-0.685700844184761,-0.165764546684805,0.000777167905535084
23141,-7.34375781152652,-0.527303046857386,-0.177537212449352,-0
23146,-7.23403525004687,-0.529496605378405,-0.189309878213891,0.00077994909242513
23152,-7.1123142828086,-0.377049314808115,-0.201082543978437,0.000779328850762015
23158,-7.00291813626537,-0.381505025618221,-0.212855209742976,-0
23163,-6.87901517817623,-0.235024683020292,-0.224627875507522,0.00262570097735716
23169,-6.76972600135873,-0.24167876396518,-0.336535859269361,0.00261868477005092
23175,-6.64367986706435,-0.101199847481024,-0.348443843031205,-0
23180,-6.53464442710476,-0.110208799200092,-0.36035182679305,-0
23186,-6.40676923158284,0.024157840646938,-0.372259810554894,0.000784314195243437
23192,-6.37568555563852,0.169970024526897,-0.384167794316738,0.000783686994392081
23197,-6.1685616750771,0.140884940304435,-0.396211096075874,-0
23203,-6.06029161258901,0.127018636010825,-0.408254397835009,0.000786515120547554
23209,-5.92941256348965,0.248784415712246,-0.420433017591435,0.00078588439609803
23214,-5.82163025204338,0.232552959222192,-0.432611637347861,0.00183864915572239
23220,-5.68955586867158,0.348010755038637,-0.544790257104303,0.00262393442550554
23226,-5.58257420812733,0.329270901494279,-0.55710419485802,0.000788094155171561
23232,-5.35208515697553,0.417694281569447,-0.569418132611737,-0.00183520599250953
23237,-5.24605741360779,0.396754096177517,-0.48173207036546,-0.00104769491826292
23243,-5.14034234806986,0.375696009442802,-0.494046008119177,0.000790316376146673
23249,-5.00809192139915,0.475438314884207,-0.506359945872909,-0
23254,-4.90307163366784,0.452316502981061,-0.518809201623917,0.000793192639995748
23260,-4.76996133362332,0.546000548205615,-0.531258457374932,0.00079255116473994
23266,-4.63562111240233,0.635643994591132,-0.54370771312594,-0
23271,-4.43491336746153,0.582636066989046,-0.556156968876948,-0
23277,-4.30050217802536,0.664554266787204,-0.56860622462797,0.000795443747865522
23283,-4.19690711769196,0.635196491344675,-0.581190798376277,0.000794798627866187
23289,-4.06218270656276,0.711234733229925,-0.593775372124576,-0.00183864915572238
23295,-3.92669415463761,0.783101292328379,-0.506359945872887,-0.00104439759360596
23300,-3.82433212384571,0.749830994164124,-0.518944519621186,0.000797058873657491
23306,-3.68883022643466,0.815712764557037,-0.531529093369493,-0
23312,-3.55278176666655,0.87757446776372,-0.544113667117806,0.000799984514775422
23318,-3.4517894767393,0.84057349467032,-0.55683355886341,0.000799332011478129
23323,-3.31599345299117,0.896498297876215,-0.569553450609014,-0
23329,-3.17993587685081,0.948280760262359,-0.582273342354618,0.000802274394514268
23335,-3.08039768338414,0.907363783018952,-0.594993234100222,-0.00104048711121241
23341,-2.94471911110592,0.953407881521226,-0.507713125845832,-0.00184557438794719
23347,-2.80895120096662,0.995341200849689,-0.520568335588727,0.000804577421019044
23352,-2.76382976849379,1.07569036635486,-0.533423545331623,0.000803917406943543
23358,-2.62743587893515,1.11126740464779,-0.546278755074518,-0
23364,-2.53094272587988,1.063220833116,-0.559133964817413,-0
23370,-2.4845383968648,1.13841471936906,-0.572124492557613,0.000806893707834465
23376,-2.3482992543194,1.16595617083249,-0.585115020297799,0.000806229889645666
23381,-2.21240670712041,1.1895674868924,-0.598105548037999,-0.00184557438794741
23387,-2.07682172041432,1.20952156063986,-0.511096075778184,-0.00103983323395742
23393,-1.94154374263164,1.22559812482566,-0.52408660351837,0.000808555714530597
23399,-1.80688933666049,1.23795096131602,-0.53707713125857,-0
23404,-1.67279769532808,1.24647622452726,-0.550067658998756,0.000811566523150461
23410,-1.49599625574355,1.31460080541596,-0.563058186738949,-0.00103816160637184
23416,-1.44426273381102,1.37239643016487,-0.476048714479141,-0.00185255198487719
23422,-1.31147166670084,1.36910391445325,-0.489039242219327,0.000813923285372153
23428,-1.17978214678276,1.3622471383142,-0.50202976995952,0.000813247855406546
23433,-1.04912209281777,1.35184623910173,-0.515020297699714,-0
23439,-0.919598168960412,1.33796670396988,-0.528010825439907,-0
23445,-0.791397339206093,1.32051322916354,-0.541001353180093,-0.00103780129791345
23451,-0.738812916014676,1.36658278482154,-0.453991880920292,-0.00103890147474906
23456,-0.612260726751002,1.34377947743502,-0.466982408660478,-0
23462,-0.487112344299735,1.31753139435458,-0.479972936400657,0.000818678113485892
23468,-0.363443753508394,1.28788997275605,-0.492963464140843,-0.00103806583381639
23473,-0.197206749695737,1.29717692843344,-0.405818673883743,-0.00185958254269435
23479,-0.144382975984559,1.33348522787016,-0.418673883626631,0.000821076421376326
23485,-0.0251447939947376,1.29356584225491,-0.431529093369527,-0.00103919347042384
23490,0.136893526411804,1.28740118637658,-0.34438430311242,-0.00186311787072239
23496,0.296357772633613,1.27381614247288,-0.357239512855308,-0
23502,0.408863715990462,1.22160136727769,-0.370094722598203,-0.00104119461663553
23508,0.562552776561442,1.19644735796005,-0.28294993234109,-0.00104230200361009
23513,0.659817382027778,1.2492829253208,-0.295805142083985,-0
23519,0.809325410172057,1.2125404219543,-0.308525033829575,0.000825915440512811
23525,0.954857956475103,1.16937818815165,-0.321244925575179,-0.00104144669749498
23530,1.09611205698722,1.12018231745981,-0.233964817320775,-0.00187022900763353
23536,1.23282874822047,1.06511391992867,-0.246549391069088,0.000828356402402685
23542,1.24374819962641,1.06172064014536,-0.259133964817387,0.000827656815849215
23547,1.25495258463247,1.0584820932282,-0.271718538565693,-0.00187022900763352
23553,1.26641786884407,1.05553193138601,-0.184167794316714,-0.00187380497131924
23559,1.23748422567897,1.14410358142085,-0.196617050067722,0.000830811835412618
23564,1.20661342867529,1.12195107596214,-0.208930987821439,0.000830108097012954
23570,1.21899236589567,1.11943187457732,-0.221244925575164,-0
23576,1.23176655573028,1.11711877672667,-0.233558863328881,-0.00104211637587855
23582,1.24477277533549,1.11513706842332,-0.145872801082618,-0.0010432257254829
23587,1.25802847028493,1.11335115089621,-0.158051420839044,-0
23593,1.27152755684388,1.11176497496888,-0.170094722598179,-0
23599,1.28521264668952,1.11029183334109,-0.182138024357315,0.000835766632609884
23604,1.25641611731694,1.08862203511983,-0.19418132611645,-0.00104234015715006
23610,1.2703352239518,1.08735415728299,-0.106224627875584,-0.00188099808061408
23616,1.28430231339836,1.08617845356984,-0.118132611637428,0.000838266259578257
23621,1.29847475839382,1.08496550962315,-0.130040595399272,0.00083754984144275
23627,1.26889791849374,1.17382032188463,-0.141813261163819,-0
23633,1.28333328146692,1.17291219461862,-0.153450608931067,0.000840780883274797
23639,1.25419968755951,1.15024431977929,-0.165087956698322,0.000840060162330625
23644,1.26897288463026,1.14950155738324,-0.17672530446557,-0
23650,1.28380703843402,1.14869950926627,-0.188362652232819,-0
23656,1.34254485763514,1.16982153694318,-0.199864682002769,0.000843310639065904
23661,1.35758221081192,1.16923928785243,-0.211231393775435,0.000842585576432304
23667,1.41692378571723,1.18991760441474,-0.222598105548109,-0
23673,1.43218568382209,1.18965985881766,-0.23382949932347,0.000845855663954536
23679,1.49207672495567,1.20978931552192,-0.245060893098845,0.000845126220280882
23684,1.50768023995344,1.20960687915923,-0.256156968876923,-0.00188099808061428
23690,1.52330675753817,1.20952820076117,-0.167253044655006,-0.00188461538461546
23696,1.58390421358003,1.22905646535844,-0.178213802435792,0.000848416096600004
23702,1.59983885846615,1.22917942150133,-0.189039242219287,0.000847682232058698
23708,1.6610744415009,1.24812722083532,-0.199864682002783,-0
23714,1.67701013353162,1.24829016581732,-0.210690121786286,0.000850992077346929
23719,1.73826089586724,1.26600936179431,-0.221380243572469,0.000850253751626145
23725,1.75401696062864,1.2654862277206,-0.231935047361368,-0
23731,1.81524806206295,1.28177907320967,-0.242354533152977,0.000853583748250059
23737,1.83051999229588,1.28081439875173,-0.252774018944585,0.000852840920546365
23743,1.89178251393891,1.29577405228911,-0.263193504736201,-0
23748,1.90679373008027,1.29412379232521,-0.273477672530511,-0
23754,1.96801593824577,1.3075388472215,-0.283761840324829,0.000856191253097787
23760,1.98265263473607,1.30528496837111,-0.293775372124557,0.000855443882108626
23766,2.04360536119384,1.31733162920824,-0.303788903924293,-0
23772,2.10464022362988,1.32819431176647,-0.31366711772673,0.000858814737443597
23778,2.2127635986625,1.35035221711466,-0.323545331529168,0.000858062781359634
23783,2.27377247165258,1.35826989811654,-0.333423545331613,0.00188461538461533
23789,2.38243184580227,1.37474611584165,-0.443031123139455,0.00188099808061415
23795,2.44324331590621,1.37949809024222,-0.452638700947304,0.000861454348628873
23801,2.55211368630477,1.390570493809,-0.462110960757848,0.000860697765126196
23807,2.61247747331719,1.39253085997975,-0.471583220568405,-0
23813,2.72132609298045,1.39835011172136,-0.481055480378956,0.000864110235811255
23818,2.83007582335421,1.40065752543156,-0.490392422192222,0.000863348982043438
23824,2.8899112773793,1.39818924036773,-0.499594046008191,-0
23830,2.99849449504215,1.39529088841428,-0.508795669824153,-0
23836,3.05776187950702,1.38998860425623,-0.517861975642838,0.00086678254999568
23842,3.16548468888927,1.38144356059572,-0.526928281461508,0.000866016582585688
23847,3.22394003936446,1.37310014293736,-0.535994587280186,-0
23853,3.33053287348536,1.35905943388009,-0.545060893098864,0.000869471444059464
23859,3.38798950798709,1.34797262301882,-0.553991880920243,0.000868700719091419
23865,3.49335372673931,1.32871021524215,-0.562787550744332,-0
23871,3.54973353306702,1.3149106238531,-0.571583220568428,-0
23876,3.65350253494638,1.29044130569716,-0.58037889039251,0.000872177072782943
23882,3.70877395873181,1.27400604666467,-0.589174560216605,0.00275239962640785
23888,3.6936018213737,1.17076204841891,-0.697834912043398,0.00187739463601524
23894,3.6546189715441,1.17508253712454,-0.70635994587289,0.000874899592879002
23900,3.59610890381606,1.08064223464275,-0.714884979702383,0.000874119218849717
23905,3.58348304998937,0.976777301935964,-0.723410013531883,-0
23911,3.52938067528039,0.880535429652689,-0.731935047361375,-0
23917,3.49397551072069,0.881757734984064,-0.740460081190875,0.000877639163023812
23923,3.44438196442538,0.783200393804555,-0.748849797023077,0.000876853896371052
23929,3.4359608960467,0.678401389568153,-0.757239512855278,-0
23934,3.40313449490834,0.677602756638029,-0.76562922868748,0.000880395943886785
23940,3.3595390126961,0.576568055584807,-0.773883626522398,0.000879605738453771
23946,3.31934819269266,0.474479404568842,-0.782138024357295,-0
23952,3.25444522021432,0.473498335080299,-0.79039242219222,-0
23958,3.2205490154626,0.369367347675523,-0.798646820027116,0.000883170098163048
23963,3.18988624607369,0.264442563582207,-0.806901217862034,-0.000995019728804498
23969,3.13276812416394,0.158797919457309,-0.715020297699652,-0.00188099808061396
23975,3.10680803919008,0.152514445396227,-0.723139377537272,0.000885961790603934
23981,3.05798850305285,0.0441809839426999,-0.731258457374892,0.000885161566801182
23987,3.01600839057483,-0.0654428484636251,-0.739242219215207,-0
23992,2.9808172281873,-0.176259750601406,-0.747225981055536,-0
23998,2.93527233998597,-0.189202586115732,-0.755209742895865,0.000888771188051709
24004,2.81849866511022,-0.220754353944801,-0.763193504736179,0.000887965883466813
24010,2.62105881074672,-0.187364028936081,-0.771177266576508,-0
24015,2.43380549041132,-0.170387833547767,-0.77916102841683,0.000891598459470159
24021,2.26902605252387,-0.277389185409667,-0.787144790257159,0.000890788025560665
24027,2.02889601718402,-0.349457924346232,-0.794993234100183,-0
24033,1.88742756622327,-0.504737602152148,-0.802841677943221,-0
24038,1.68117388487202,-0.621783983265035,-0.81055480378896,0.000894443775980848
24044,1.57379252841969,-0.817508741252534,-0.818267929634708,-0.000987369917030389
24050,1.40681952690962,-0.961312352795489,-0.725981055480439,-0.00188461538461552
24055,1.26076499105027,-1.09786241158088,-0.733694181326179,-0
24061,1.22319289580816,-1.27240336913305,-0.741407307171912,0.000897307310896687
24067,1.10076884605246,-1.44063529060839,-0.749120433017659,0.000896486470219292
24072,1.09385599241764,-1.55390650728839,-0.756833558863391,-0
24078,0.99350256343452,-1.7072629903515,-0.764546684709138,0.000900189239757251
24084,0.900457749384265,-1.83387572443458,-0.772259810554871,0.000899363120365835
24089,0.908230405532678,-1.91625823543751,-0.779972936400611,-0
24095,0.826732098863194,-2.05499846782226,-0.787686062246358,-0
24101,0.841885310005786,-2.13915797337514,-0.795399188092091,0.000903089740363254
24106,0.752412553740825,-2.20433371726936,-0.803112313937831,0.000902258291173543
24112,0.772299146093761,-2.29037909547885,-0.810825439783564,-0.00188461538461523
24118,0.771025508739886,-2.29153610235537,-0.718538565629309,-0.00188824662813087
24123,0.855686868438449,-2.22598355336928,-0.726251691475042,0.000906008992816659
24129,0.85426921485477,-2.22650826741014,-0.733964817320775,0.000905172162083093
24135,0.940351804830907,-2.16352845265082,-0.741677943166522,-0
24140,1.02774853349984,-2.10350977894686,-0.749391069012255,-0
24146,1.02606857924171,-2.1031170443517,-0.757104194857988,0.000908947179553332
24152,1.11467914065738,-2.04583697528235,-0.764817320703727,0.000908104914858333
24157,1.10608095248902,-2.00900904296465,-0.77253044654946,-0
24163,1.20251102016142,-1.99056291466055,-0.780243572395207,0.00091190448538538
24169,1.19466982836591,-1.95462426886675,-0.78795669824094,-0.000977189894502569
24174,1.28644742867653,-1.90445868003168,-0.695669824086671,-0.00189189189189184
24180,1.37928007490039,-1.85723447904592,-0.703382949932418,-0
24186,1.37385910490243,-1.82358739885444,-0.711096075778151,0.000914881097536659
24191,1.46861814168983,-1.78094599363046,-0.718809201623891,0.00091402780492304
24197,1.46469458344742,-1.74843876301142,-0.726522327469624,-0
24203,1.56141985647137,-1.71039018465781,-0.734235453315357,-0.00189189189189194
24208,1.65885413888582,-1.67557765275363,-0.641948579161095,-0.000977674051569157
24214,1.65694812926566,-1.61953505614893,-0.649661705006835,0.000917018317713841
24220,1.75622399825452,-1.59118350492112,-0.657374830852575,-0
24226,1.75617316206421,-1.56258592192703,-0.665087956698308,0.000920893001997464
24231,1.85674236241311,-1.53897082129188,-0.672801082544041,0.000920028463452941
24237,1.85784406743683,-1.51166182734128,-0.680514208389788,-0.00189555125725339
24243,1.95931657932394,-1.49283660322589,-0.588227334235519,-0.00189922480620156
24248,1.96148855701599,-1.46684460721259,-0.595940460081252,0.000923928681180181
24254,2.06599301590836,-1.43389861912442,-0.603653585926985,0.000923058436115353
24260,2.06923756666929,-1.40928328200335,-0.611366711772718,-0
24266,2.17469666784344,-1.38477930578192,-0.619079837618465,-0
24271,2.18306140566875,-1.34473817061067,-0.626792963464197,0.000926984440511491
24277,2.28933085598531,-1.33063538279805,-0.63450608930993,-0.000973116373962612
24283,2.30412829333455,-1.27908005481203,-0.542219215155669,-0.00190291262135942
24288,2.41476879899512,-1.26390763623765,-0.549932341001401,-0
24294,2.43839656338373,-1.20577694567913,-0.557645466847141,0.000930060479889667
24300,2.55897962439615,-1.18701749512772,-0.565358592692874,0.000929178650969234
24306,2.60095672527617,-1.11870190930086,-0.573071718538607,-0
24311,2.73068420792688,-1.11387533602344,-0.580784844384347,-0
24317,2.79424596311544,-1.04937378602976,-0.58849797023008,-0.000971567574827962
24323,2.92446132206058,-1.07510507493662,-0.496211096075811,-0.000972531738401964
24328,3.01447671268492,-1.0276089099768,-0.504059539918849,-0
24334,3.1245731688051,-1.09630775785994,-0.511772665764596,0.000936274211733405
24340,3.19725285759906,-1.0846543622806,-0.519485791610329,0.000935380566118901
24346,3.21434596452428,-1.07730583574305,-0.527198917456062,-0
24351,3.25083377793599,-0.971859516092086,-0.534912043301802,-0
24357,3.35893891334842,-0.882980364626243,-0.542625169147549,0.000939412317483848
24363,3.77673436638163,-1.29592003825586,-0.550473612990572,0.000938512674252921
24368,3.4858032610715,-2.08192162920144,-0.558322056833603,-0
24374,3.37455925592941,-2.11268376718992,-0.566170500676641,-0
